"WAVEL [µm]" "FLUX [Jy]" "FLUX_err [Jy]"
4.2005934715271 611.9150082009705 16.11791551772885
4.181502342224121 630.3893278626143 15.912388534701854
4.162330627441406 642.5456504719292 16.22583598199561
4.143077850341797 652.8551519829529 16.526397104194274
4.123741626739502 662.0103027479124 16.883120652338864
4.104321002960205 670.4474493649969 17.253418996862397
4.084813117980957 677.985246333486 17.62224179002669
4.065215587615967 684.4062049825808 17.97657831975873
4.045527458190918 689.5025060354147 18.300154888388793
4.025744915008545 693.3060436856687 18.584688530675677
4.005866050720215 695.9215747999782 18.81904438896897
3.9858877658843994 697.8292017171686 19.003674593608036
3.9658074378967285 699.6054767912326 19.143696335377996
3.9456217288970947 701.9187692239312 19.261036311990296
3.9253273010253906 705.2604214267269 19.377386807483838
3.904921531677246 710.163961286581 19.52589905441803
3.884399652481079 716.8344237437209 19.728981494700644
3.8637585639953613 725.2906943367262 19.998214342481614
3.842994451522827 735.1719702753537 20.31893556947988
3.8221027851104736 745.9674054205755 20.66664614117102
3.8010802268981934 757.0156856455858 21.01230725881587
3.779921770095825 767.6219786814697 21.330104543779647
3.7586233615875244 777.1271440728569 21.602204275997693
3.73717999458313 785.1259154354934 21.81934599360801
3.7155869007110596 791.525874809805 21.983166961563803
3.6938390731811523 796.9930215685763 22.113471064977844
3.671931505203247 802.6032250715836 22.240590390455456
3.6498589515686035 809.1357135274607 22.38229689953266
3.6276156902313232 816.8030511589906 22.54474248664383
3.605196475982666 825.5578916410054 22.732079795392895
3.5825953483581543 835.0257524195209 22.94255764223899
3.5598063468933105 844.811461630019 23.16429810120676
3.5368235111236572 855.0645456303192 23.40172186545315
3.5136404037475586 866.5082704987315 23.669318102358982
3.490251064300537 880.0939749757828 23.982915189498726
3.4666483402252197 896.5602272584431 24.34899063230793
3.442826271057129 915.8544583377038 24.755175976340595
3.4187774658203125 936.9159619133444 25.17324423391692
3.3944947719573975 957.492552951476 25.552223340766147
3.369971752166748 974.0491297571025 25.814307591363164
3.345200300216675 982.127294344073 25.86070503214165
3.3201732635498047 977.6939234452849 25.610972037318703
3.2948827743530273 957.377938428838 24.979322845946843
3.2693214416503906 918.3408156590103 23.87534577830293
3.243481159210205 861.4717129466047 22.320764923226786
3.217353582382202 793.4920222869163 20.514433867210478
3.1909308433532715 724.2868156671111 18.730964338228766
3.1642038822174072 662.1612143883499 17.179043070048664
3.137164831161499 612.8290110056 15.988070410127872
3.109804630279541 581.0720099607869 15.226056103931224
3.0821139812469482 573.0266043304891 14.997974886362886
3.054084539413452 601.8182429679164 15.631868403538222
3.0257067680358887 676.0774297139313 17.334471894989104
2.996971368789673 784.3179453238331 19.76290892386454
2.9678683280944824 906.0730621051152 22.455663078384067
2.9383885860443115 1027.306387744778 25.19299334549734
2.908522129058838 1138.4083214678224 27.818425667367606
2.8782589435577393 1230.5557328974326 30.16310373028963
2.8475887775421143 1296.8594120217358 32.11030807961001
2.8165016174316406 1340.4720035818636 33.73079016981557
2.7849864959716797 1378.9209270458093 35.21151200554811
2.753032922744751 1430.4888643457386 37.75575307756817
2.720630407333374 1443.1386495714503 42.7177556715332
2.687767744064331 1324.1403717571832 59.25582957469598
7.906029224395752 271.4104290192187 7.541607095975547
7.961140155792236 275.13521077868495 7.649750893025869
8.016042709350586 279.2397956585869 8.16687476351171
8.0707368850708 281.57810895881084 8.84896123637215
8.125223159790039 280.9145723949588 9.198708128519788
8.179500579833984 281.01107965409227 9.535321074314421
8.233570098876953 280.6594386912838 9.842673331528669
8.287431716918945 280.2199814647815 10.1450939857404
8.341085433959961 280.111500431628 10.325554800285447
8.394530296325684 280.0096065947253 10.444286602055117
8.447768211364746 279.49965662181427 10.546386295478362
8.500797271728516 279.6187351063847 10.625873710516867
8.553616523742676 278.9272125267864 10.656349293034314
8.606228828430176 277.75783005907067 10.713826930890274
8.658634185791016 276.3331779682252 10.696870991076626
8.710829734802246 273.6205565611617 10.679554130915768
8.7628173828125 270.1599318650695 10.583522709262047
8.814598083496094 266.58311410227225 10.476785138187763
8.866168975830078 261.83175252726454 10.316724946602694
8.917532920837402 256.41661290839863 10.16274215447903
8.968688011169434 250.77732122833223 9.905854586594437
9.019634246826172 244.83565111592026 9.68191923972379
9.07037353515625 238.5996504459285 9.49933849953678
9.120903968811035 232.80821179863204 9.373701527708613
9.171226501464844 226.71597778845148 9.260741770189783
9.221341133117676 220.47736445020598 9.108927895188144
9.271246910095215 215.1242431109962 9.017444353721013
9.320944786071777 209.5026345719626 9.010640671111977
9.370434761047363 203.82530783545326 9.011828209974702
9.419716835021973 199.49626799657764 8.913809912722234
9.468789100646973 194.29899609052129 8.93356890226385
9.517654418945312 189.2232059062758 8.927039347832233
9.566311836242676 184.0438361882534 9.209452912695076
9.614760398864746 179.2628638065639 9.23062116787
9.66300106048584 175.8018948671398 8.991161805051846
9.711033821105957 173.07372160703733 8.607343438339566
9.758857727050781 171.23316446612682 8.075675708082553
9.806473731994629 169.88813411114447 7.594319659911302
9.8538818359375 168.46385368414698 7.199049236589353
9.901082038879395 167.1105811192707 6.941623291726315
9.948073387145996 166.65562277952398 6.797587593598544
9.994856834411621 166.66592962161323 6.638738912516687
10.041431427001953 166.82392647910535 6.523204233966677
10.087799072265625 166.2999954270268 6.54489432764707
10.133957862854004 165.50654055439506 6.547303796539626
10.179908752441406 165.97076381887385 6.538105012682136
10.225650787353516 166.23498097588197 6.528894099649725
10.271184921264648 165.8070210644817 6.4934878850104365
10.316511154174805 165.7499776357085 6.595058470081875
10.361629486083984 166.15421853975522 6.675990480381571
10.406538009643555 166.9565313969347 6.751249460458188
10.451240539550781 167.94966091232212 6.792371406965783
10.495733261108398 168.4325788402645 6.874428687159519
10.540019035339355 169.56506541102587 6.912436196047598
10.584095001220703 171.08682854113053 6.982615182697886
10.627964973449707 171.67641187172146 6.976052622604031
10.671625137329102 171.6815785150219 7.108236956308036
10.71507740020752 172.7429647912176 7.052266870204138
10.758321762084961 172.73359088083367 7.187102690953944
10.801358222961426 171.89430031126622 7.3231577263116785
10.844185829162598 172.62286198655065 7.3853064301900275
10.886805534362793 173.22430666584 7.399512107005321
10.929216384887695 172.33404915448344 7.63799573137481
10.971420288085938 173.06797228691224 7.476130201093736
11.013416290283203 172.00984250421845 7.626077649892184
11.05520248413086 171.7836645330803 7.70143836323666
11.096780776977539 172.2252302903804 7.701414808638595
11.138152122497559 171.2526407297396 7.886475687526215
11.179314613342285 169.4130275874568 7.975490409608927
11.220269203186035 168.06233065899363 7.888016202562728
11.261014938354492 165.09175245464576 8.042386866912596
11.301552772521973 163.02896414600312 7.96705124584053
11.34188175201416 161.1029724374524 7.8417117030602705
11.382003784179688 158.90755212667656 7.630499728758949
11.421916961669922 156.72031274734573 7.340260840958333
11.46162223815918 154.46148618200297 7.250973102904213
11.501118659973145 152.60894465031572 7.010521652917178
11.54040813446045 150.06299624553384 6.745349687732029
11.579487800598145 147.46222545390714 6.7231081063626785
11.61836051940918 145.47891079671663 6.630962589331101
11.657025337219238 141.83942112825588 6.703998542622668
11.695481300354004 138.3797613536439 6.313764919396202
11.733729362487793 135.17091559782338 6.282819319423526
11.771769523620605 133.66374588056598 6.0024387802699675
11.809600830078125 130.62965525503864 5.973371867375055
11.847223281860352 128.11694425583755 5.594393566262513
11.884638786315918 124.02720120912775 5.644136103172781
11.921845436096191 121.15802110906104 5.387854066192912
11.958845138549805 118.57722128824227 5.779711394763161
11.995635032653809 115.31430824013187 5.55975088294658
12.032217025756836 110.43806464158894 5.623435867008466
12.068592071533203 108.69933353811324 5.304770461496629
12.104758262634277 104.82467740031754 5.495610550783749
12.140715599060059 102.61847710432001 5.28199941996473
12.176465034484863 100.37969313852167 5.372875631994712
12.212007522583008 96.89619785389544 5.227298822680166
12.247340202331543 93.94106559282262 5.612748121570247
12.282465934753418 91.67521217180739 5.616446344692822
12.317381858825684 88.51137248277364 6.125544571322067
12.352090835571289 88.83363817531621 5.645281411773426
12.386591911315918 86.27891837318427 5.542116062160593
12.420884132385254 84.32715542488818 5.145706872161097
12.454968452453613 83.64148584753283 4.953517014427321
12.488844871520996 80.7888403665222 4.717680841578432
12.522512435913086 78.65818678422306 4.71778589810922
12.5559720993042 76.05332582970041 5.069152998568627
12.589223861694336 73.62420435104337 5.05536041947828
12.62226676940918 74.37381883750712 4.979666705744339
12.655101776123047 71.66642705554459 5.75378824372582
12.687728881835938 69.75304477873328 5.649351563351614
12.720147132873535 69.15461528308434 6.130787740370943
12.752358436584473 68.5402748382294 6.216135928118649
12.784360885620117 66.6614408068361 5.708421823460592
12.816154479980469 64.70085099765097 5.97019388653842
12.847740173339844 61.890503113193176 6.381674190008668
12.879118919372559 58.87456516623525 6.987484392035689
12.910287857055664 58.933250871403516 7.046091001808608
12.94124984741211 59.15963011773659 5.8128381412476395
12.972002983093262 59.121767321199194 5.111618165615994
13.002548217773438 57.190071713164365 4.195736480613872
13.032885551452637 47.239761509337335 3.5026972203499
